1191
1212
1221
1220
1196
1159
1115
1070
1026
990
971
967
974
979
982
977
977
974
972
971
970
967
962
962
962
961
962
958
956
955
956
955
955
955
954
949
953
955
956
955
952
951
953
958
960
957
955
952
955
957
958
956
953
954
956
959
959
957
956
954
957
958
961
957
956
957
961
965
965
965
965
965
966
971
969
966
965
966
970
973
975
975
975
974
976
977
981
981
980
980
983
986
987
987
983
987
988
989
992
990
988
987
990
989
992
989
987
986
986
986
987
984
979
977
976
977
979
973
969
967
965
967
967
966
962
962
961
962
963
961
958
957
958
962
962
960
957
955
957
961
964
963
961
959
961
966
963
965
963
964
967
967
969
967
964
963
966
970
968
966
961
962
960
965
965
961
960
959
962
966
967
963
963
960
963
966
966
964
963
962
961
962
967
968
964
962
964
969
971
969
965
964
966
969
968
967
966
965
970
973
974
973
970
971
972
974
974
970
969
969
969
971
973
973
972
971
973
977
979
978
975
979
981
985
988
990
991
996
1011
1029
1046
1067
1088
1114
1144
1173
1196
1207
1207
1194
1161
1125
1079
1035
993
970
962
968
973
974
970
969
972
970
964
963
959
960
962
964
963
960
956
957
957
961
962
959
954
954
955
956
957
954
950
950
952
956
955
953
950
950
953
957
958
956
953
951
955
958
957
956
956
955
958
962
961
959
957
955
957
961
963
961
959
960
964
968
966
969
968
967
967
973
975
971
971
972
976
977
982
981
978
978
978
983
983
986
983
985
987
991
990
989
987
988
989
994
994
991
989
988
992
994
993
990
987
986
985
985
985
983
976
976
977
980
979
977
972
970
971
972
972
969
966
967
969
970
973
970
964
964
966
971
970
969
966
961
964
967
971
969
964
963
968
970
970
967
965
963
967
970
973
970
968
969
970
972
973
974
968
969
972
977
975
972
972
971
973
974
975
974
971
972
972
977
978
977
971
972
972
977
978
978
974
975
973
976
976
972
970
969
971
976
977
975
973
973
973
976
975
973
970
970
972
973
975
974
969
967
969
972
974
972
967
967
970
972
974
973
969
966
970
970
973
972
968
969
974
977
977
975
971
973
975
977
980
978
974
974
974
978
979
978
975
976
978
981
981
981
979
978
978
985
985
985
981
981
981
984
984
985
982
980
982
985
985
983
982
983
987
992
993
994
991
993
997
1005
1010
1014
1022
1035
1050
1069
1089
1108
1126
1150
1178
1202
1222
1233
1227
1209
1181
1146
1110
1075
1039
1012
998
995
998
998
996
994
994
989
991
987
982
980
982
981
982
980
975
974
975
976
976
973
969
967
968
970
970
968
964
964
964
968
968
968
964
964
966
968
967
967
965
966
969
972
970
968
970
970
973
974
975
972
970
972
973
979
979
978
977
977
982
984
985
985
985
983
990
992
995
996
992
994
994
1001
1003
1002
1000
1002
1002
1006
1008
1008
1006
1006
1006
1010
1009
1013
1011
1010
1013
1018
1019
1015
1013
1013
1014
1016
1016
1016
1010
1011
1010
1014
1013
1010
1005
1003
1005
1007
1005
1002
996
992
993
996
999
997
992
991
992
994
997
996
991
987
987
992
995
993
991
992
992
996
999
1000
999
1003
1009
1014
1018
1022
1021
1024
1030
1036
1044
1052
1059
1069
1081
1094
1105
1117
1124
1137
1151
1168
1184
1197
1206
1211
1216
1221
1219
1214
1210
1204
1201
1193
1181
1165
1152
1134
1120
1108
1095
1083
1070
1063
1065
1060
1053
1048
1048
1057
1064
1072
1068
1057
1037
1010
995
983
970
963
954
947
943
939
932
927
920
914
914
912
907
901
898
890
891
893
891
888
883
880
880
883
880
879
877
875
875
881
881
879
877
877
877
879
879
876
877
872
876
878
877
874
870
870
873
876
874
875
875
873
875
881
881
880
877
879
882
886
888
888
884
884
889
894
897
900
897
900
905
910
913
917
917
919
924
927
928
930
931
933
935
940
941
942
941
942
948
949
951
950
949
949
951
953
954
954
952
956
958
963
961
962
959
961
961
965
965
964
960
959
963
965
965
964
962
961
962
967
969
967
963
964
964
970
971
969
965
962
962
966
963
961
958
956
963
964
966
962
959
956
962
964
966
966
960
960
963
962
967
965
961
960
960
963
967
965
963
960
963
964
966
964
963
963
965
966
969
970
966
963
967
967
968
964
962
962
964
964
966
963
960
960
960
964
962
961
955
957
957
961
960
960
957
958
960
965
967
962
960
957
959
966
966
964
960
961
964
966
968
965
962
960
961
963
960
962
959
961
962
964
967
963
961
964
963
968
969
968
962
961
963
968
969
965
962
960
962
966
967
965
964
964
967
970
972
965
964
967
968
969
968
967
965
965
969
969
967
964
963
963
968
971
972
968
966
963
967
968
970
968
965
964
966
970
974
972
973
971
976
980
980
977
979
981
985
988
990
994
997
1005
1016
1033
1052
1073
1094
1121
1150
1177
1197
1205
1199
1180
1155
1122
1081
1036
992
964
960
967
971
969
968
970
970
970
970
968
964
961
962
962
959
957
955
954
958
959
957
955
949
949
954
957
955
953
950
950
952
956
956
954
953
951
951
950
954
953
952
951
951
953
955
955
953
955
958
962
959
955
955
956
960
963
964
963
962
962
965
971
969
968
966
968
971
974
972
974
973
974
977
982
979
977
978
976
980
982
983
984
982
981
987
989
989
989
989
989
994
997
999
997
993
992
995
999
1002
999
997
995
996
997
997
993
990
989
991
991
989
987
984
982
982
983
980
978
976
976
975
979
975
972
970
971
974
979
975
972
970
974
976
976
979
976
973
973
978
984
983
982
978
979
981
985
984
982
982
982
984
986
987
986
983
985
988
990
989
986
985
986
988
987
987
988
985
987
987
987
984
986
985
985
986
985
987
984
982
984
986
988
988
985
983
982
984
987
988
987
979
980
981
985
985
984
978
978
980
984
981
981
978
978
977
982
984
982
978
977
978
980
983
981
979
978
981
982
982
980
976
977
980
984
984
984
983
981
984
984
986
982
980
982
988
988
989
983
984
985
983
990
991
989
987
988
989
996
999
998
997
1001
1006
1015
1026
1033
1047
1067
1092
1117
1146
1170
1193
1211
1221
1220
1200
1170
1128
1086
1045
1012
989
979
978
981
985
989
991
988
985
982
981
983
981
978
973
974
974
977
975
976
972
969
972
979
978
974
971
973
972
975
972
968
967
967
969
973
973
972
969
967
968
969
972
967
964
963
967
970
973
970
966
968
969
971
972
972
969
972
971
976
977
976
975
978
980
986
987
984
984
986
990
995
995
997
993
995
999
1004
1005
1005
1005
1007
1008
1013
1011
1009
1007
1009
1010
1012
1014
1013
1008
1008
1008
1010
1011
1005
1003
1001
1002
1002
1002
997
994
991
991
990
991
989
984
984
986
988
990
988
981
982
979
983
981
979
979
978
980
983
981
979
978
979
979
981
984
984
980
980
984
988
987
986
984
986
987
990
993
991
989
994
997
1003
1009
1008
1010
1013
1018
1026
1030
1036
1043
1055
1066
1076
1086
1095
1105
1116
1130
1142
1156
1164
1173
1181
1191
1196
1193
1187
1183
1182
1180
1177
1172
1158
1146
1135
1122
1115
1101
1090
1079
1072
1070
1068
1067
1062
1057
1057
1063
1073
1078
1082
1077
1062
1042
1020
996
978
965
960
953
952
945
939
932
927
925
926
924
919
915
911
911
911
910
909
902
902
902
901
899
894
889
890
890
893
889
887
883
882
883
884
885
880
878
876
877
877
878
875
872
873
875
875
875
871
871
873
875
877
879
878
877
878
884
888
891
890
889
893
899
904
908
908
909
916
920
927
930
932
933
936
943
947
950
952
952
954
959
962
961
962
958
961
966
966
967
964
961
963
965
967
970
965
961
960
963
967
965
963
960
959
960
962
961
960
957
959
960
962
962
959
958
955
959
965
964
962
959
962
962
965
967
965
963
967
968
969
971
969
965
966
967
971
970
970
968
968
973
977
977
973
972
972
974
976
976
974
972
971
975
977
974
970
966
968
969
970
969
968
966
964
965
969
966
966
963
963
966
970
968
966
966
964
966
968
968
967
965
964
968
970
970
967
965
967
968
972
972
970
967
968
970
972
971
970
966
969
971
974
972
971
970
970
972
973
973
971
968
969
971
974
972
970
966
968
971
975
973
970
971
970
974
974
974
971
969
971
973
975
976
973
971
970
973
972
977
972
972
975
974
976
976
971
970
973
975
977
976
974
973
972
974
979
981
979
975
977
983
986
985
985
981
984
988
992
991
988
985
986
994
999
1000
999
997
1000
1004
1016
1024
1033
1045
1062
1085
1111
1136
1160
1180
1201
1223
1232
1224
1195
1154
1112
1073
1041
1008
991
985
988
994
993
989
984
982
980
979
981
983
978
973
972
974
977
971
971
967
968
968
971
971
967
964
963
966
970
967
967
965
962
966
967
966
965
964
964
965
969
970
969
968
967
971
975
975
970
968
965
967
973
975
972
971
974
975
982
983
984
983
989
992
998
997
995
995
996
1000
1004
1003
1003
1002
1005
1008
1011
1011
1007
1005
1011
1014
1019
1018
1013
1014
1017
1018
1020
1020
1017
1017
1014
1014
1016
1015
1011
1008
1007
1006
1006
1005
1001
999
998
998
998
994
991
988
989
991
992
989
987
980
979
983
988
982
979
978
976
980
980
979
976
977
975
976
978
982
975
976
976
977
981
978
977
976
975
978
982
980
977
977
979
982
984
982
981
980
979
984
987
986
985
985
985
988
990
988
985
984
984
984
987
987
985
981
982
984
986
984
981
979
981
982
986
982
979
977
976
978
980
980
978
975
976
977
978
977
974
973
975
979
983
980
977
975
978
979
983
982
982
978
977
982
982
982
980
979
978
981
986
985
985
983
984
987
992
994
992
992
996
997
1006
1015
1022
1031
1047
1069
1096
1123
1149
1173
1197
1215
1221
1204
1176
1134
1090
1049
1012
980
970
971
976
981
985
983
982
976
977
977
980
976
972
969
966
968
970
972
970
966
967
968
970
968
964
966
965
964
967
966
965
964
965
965
968
967
965
964
966
969
974
974
972
970
970
972
975
975
975
972
975
975
980
980
980
979
979
983
985
986
983
981
984
986
992
990
989
988
990
991
998
996
995
992
993
999
1002
1002
1001
999
1002
1006
1007
1007
1005
1005
1004
1010
1010
1010
1008
1002
1003
1006
1009
1005
1002
996
996
998
1001
996
993
988
987
987
986
983
981
978
978
978
979
978
977
972
973
975
976
973
971
969
972
972
976
974
972
971
970
975
979
979
975
974
975
976
979
979
978
975
976
978
983
980
977
976
979
981
985
985
981
979
982
985
987
984
984
982
981
984
987
982
979
978
976
980
980
980
980
976
978
979
979
978
975
974
975
978
981
979
976
974
976
979
981
981
979
974
975
979
980
978
978
974
975
979
981
982
979
977
978
976
979
977
975
975
977
980
981
982
980
977
977
978
979
976
973
971
972
977
980
979
978
975
976
977
980
979
975
973
973
975
980
977
976
975
973
974
974
973
970
970
969
972
974
977
974
972
972
975
979
979
977
974
978
984
984
987
984
981
986
990
994
994
992
991
992
998
1005
1011
1014
1022
1036
1057
1078
1101
1123
1144
1174
1199
1218
1222
1210
1178
1133
1091
1054
1014
986
977
981
988
992
987
978
973
974
975
974
977
973
970
970
968
971
972
970
967
966
971
975
971
969
966
970
971
974
973
969
966
967
966
970
968
965
962
963
966
968
966
965
962
962
963
966
965
964
962
963
965
968
969
965
967
969
973
976
976
973
974
976
979
985
985
985
983
987
992
998
1001
1001
998
1002
1007
1010
1012
1008
1007
1007
1010
1013
1013
1009
1007
1007
1008
1007
1008
1002
1003
1003
1004
1002
999
995
991
994
993
994
989
987
984
981
982
984
980
979
974
978
978
981
979
978
973
974
977
981
981
979
979
977
981
983
985
983
982
983
987
992
996
998
1000
1005
1010
1015
1017
1022
1026
1038
1051
1064
1074
1081
1090
1104
1118
1131
1141
1152
1162
1175
1184
1191
1188
1183
1177
1174
1170
1164
1155
1142
1126
1111
1099
1088
1072
1059
1048
1041
1037
1032
1027
1022
1017
1016
1020
1025
1031
1036
1038
1038
1027
1013
993
974
957
947
942
942
938
928
923
919
920
919
915
910
906
903
905
904
903
897
891
891
895
894
893
891
885
886
887
889
889
888
886
884
884
888
886
884
880
881
883
885
884
880
880
881
880
881
881
880
876
875
878
882
881
877
875
878
882
884
886
884
883
886
888
891
895
893
893
895
900
907
908
907
909
909
918
922
924
926
923
928
933
941
941
941
940
941
944
949
950
949
949
951
955
957
955
954
951
951
954
956
961
958
956
957
961
962
962
955
954
957
962
964
964
961
958
959
962
966
963
960
956
956
960
962
962
961
959
959
963
967
965
963
959
960
962
962
963
963
960
959
962
964
964
963
961
962
964
967
966
963
962
962
963
966
966
966
962
964
966
970
969
966
963
966
968
970
967
965
961
962
966
967
965
964
962
963
964
964
966
962
958
959
962
962
960
956
957
958
960
960
959
956
954
956
956
962
959
957
957
958
959
961
960
956
956
957
959
964
962
958
955
957
962
965
964
961
959
959
962
966
965
961
961
962
966
968
964
965
961
962
965
968
967
964
962
964
967
967
967
965
962
962
966
969
971
967
967
967
971
971
970
967
967
969
971
974
970
971
969
970
974
976
975
972
971
973
977
980
979
981
976
981
986
991
996
1004
1011
1024
1041
1061
1078
1096
1116
1139
1165
1186
1201
1209
1209
1201
1186
1159
1122
1084
1045
1009
987
978
974
973
975
977
979
978
974
968
969
969
970
973
967
966
964
960
964
966
963
960
957
955
959
962
962
960
958
956
959
961
957
956
953
955
957
960
956
954
954
954
958
960
961
958
956
957
961
964
964
958
957
959
960
965
964
964
963
965
970
975
975
972
972
973
977
978
977
974
975
977
979
983
983
980
977
981
983
986
989
986
985
988
987
994
993
991
991
992
991
993
994
992
995
997
1002
1004
1001
1000
999
1001
1001
1003
1003
998
993
994
995
995
992
991
987
990
993
994
990
984
983
979
982
981
979
976
973
973
971
976
975
972
968
970
971
974
972
967
965
966
968
972
971
965
966
962
967
971
971
967
967
967
972
974
971
967
967
971
971
974
973
971
969
969
970
973
973
971
968
969
972
975
972
971
971
970
971
975
973
974
972
971
973
974
975
971
969
970
973
975
975
971
967
969
968
971
972
971
969
968
971
971
970
967
968
968
969
970
969
966
963
961
966
968
964
962
959
962
964
964
966
964
961
963
967
970
968
966
964
966
968
969
969
967
963
963
969
970
971
969
966
968
971
974
974
970
970
973
977
980
980
979
977
981
988
997
1005
1015
1030
1059
1091
1122
1149
1177
1197
1200
1191
1165
1125
1086
1051
1010
979
962
951
953
960
964
972
971
966
963
959
960
960
959
959
956
952
949
949
953
950
952
951
950
953
953
951
948
949
948
948
953
952
945
942
947
949
952
950
945
944
947
952
952
956
952
950
952
955
956
953
954
951
956
960
964
965
962
963
964
967
970
969
970
972
973
976
978
976
976
977
982
985
987
986
986
985
985
989
990
989
988
987
987
991
994
993
988
987
986
988
991
988
986
983
985
988
985
985
981
976
975
979
979
977
975
970
971
973
974
971
968
964
967
970
970
966
963
961
960
962
963
959
954
951
955
959
959
959
958
956
957
959
963
960
957
954
957
960
962
961
961
962
964
965
965
963
963
959
961
966
969
965
964
961
964
965
971
968
964
964
968
969
969
967
965
963
965
967
970
968
967
965
966
967
970
967
962
960
961
963
965
962
960
961
965
966
970
966
962
961
964
966
966
965
964
963
967
968
967
967
963
967
968
969
971
970
969
967
966
971
976
975
971
969
972
977
980
982
982
987
987
997
1008
1018
1033
1048
1073
1102
1130
1155
1178
1198
1211
1217
1210
1183
1145
1109
1065
1020
979
953
945
950
957
960
964
962
960
958
957
962
961
958
954
954
955
956
957
955
952
952
954
958
961
957
952
952
953
958
958
958
954
955
958
959
959
957
955
953
953
956
959
957
953
952
955
957
958
957
954
952
955
957
961
958
957
955
957
960
962
964
962
961
963
966
969
968
968
967
970
973
976
976
978
977
978
981
985
984
982
983
989
991
995
996
993
993
995
998
1001
998
996
995
996
999
999
999
993
991
992
994
994
988
984
982
981
982
981
978
976
972
973
975
973
971
968
966
966
968
970
971
967
964
962
965
968
966
964
961
966
969
971
968
965
966
967
971
970
970
968
968
969
971
972
971
968
967
966
968
969
970
967
969
969
971
973
970
967
964
968
969
971
970
966
964
968
968
969
967
964
964
967
968
968
968
967
967
970
974
974
974
972
970
971
974
972
975
970
970
971
976
977
977
973
974
977
978
979
980
974
974
975
979
977
977
973
973
974
976
980
976
975
972
975
974
978
980
975
972
974
976
979
981
977
976
981
985
988
989
992
997
1006
1020
1034
1055
1074
1096
1120
1145
1174
1194
1212
1223
1222
1205
1175
1131
1083
1031
988
967
961
964
967
971
973
975
974
973
967
966
966
967
968
966
961
958
961
962
964
959
957
955
956
962
960
961
956
955
957
957
959
957
954
952
953
954
957
954
951
954
957
956
957
956
955
953
958
962
961
960
955
956
960
966
968
967
964
966
969
971
974
976
973
975
978
982
983
983
984
984
986
989
993
991
987
986
991
992
993
990
989
989
989
992
994
994
992
993
995
998
999
999
997
997
997
999
999
996
992
990
990
990
993
987
984
982
980
982
981
979
975
973
976
977
978
977
973
972
973
976
977
976
970
972
974
977
978
977
979
981
982
985
990
993
998
995
1004
1013
1023
1033
1044
1051
1063
1077
1088
1100
1110
1121
1138
1153
1172
1182
1189
1191
1191
1188
1187
1179
1173
1163
1152
1142
1125
1104
1088
1067
1049
1039
1026
1018
1011
1004
1004
1002
1004
1007
1011
1024
1036
1044
1038
1021
997
975
960
948
944
938
931
924
923
921
920
916
911
906
906
907
905
903
898
895
895
899
897
893
888
886
888
889
891
884
879
878
877
879
878
879
874
873
878
879
882
879
877
878
879
880
881
879
879
877
877
884
888
885
887
886
891
895
897
896
898
901
903
909
914
916
918
916
922
926
929
929
930
933
934
940
944
943
942
941
946
947
949
947
944
945
948
950
951
948
950
950
949
949
951
951
947
949
949
954
955
954
951
948
950
954
953
953
951
949
950
954
953
952
948
947
951
954
958
956
957
953
956
958
960
960
954
956
959
962
962
957
954
955
957
960
960
957
955
950
951
956
960
959
956
955
957
960
960
955
953
952
952
956
957
954
952
949
954
955
954
955
951
952
955
956
957
956
954
952
957
958
959
957
955
956
956
960
960
957
956
953
958
960
961
962
956
959
961
963
962
958
960
959
960
959
960
957
954
955
956
960
961
961
955
956
958
961
960
958
954
955
955
958
958
955
957
956
953
960
959
960
957
956
960
961
959
958
954
955
958
962
960
959
957
959
960
963
964
959
959
959
959
964
966
964
961
960
963
968
966
969
967
968
967
970
969
968
968
966
969
974
974
972
971
973
981
988
998
1008
1020
1034
1057
1082
1109
1140
1164
1185
1205
1212
1199
1166
1116
1072
1024
983
954
941
944
950
958
963
963
962
961
957
957
960
960
958
954
951
952
954
956
954
953
949
952
955
953
953
948
950
951
955
953
951
947
945
946
950
949
948
946
944
948
949
952
952
948
948
949
950
952
951
948
951
954
958
960
956
955
952
955
962
966
964
963
961
962
969
970
971
968
971
972
975
976
974
972
975
976
981
985
986
980
979
983
989
992
992
991
990
994
996
997
997
997
995
997
1000
999
995
992
993
992
995
993
991
987
987
987
987
984
978
973
971
973
975
974
971
966
960
964
968
971
970
967
964
967
971
972
972
969
970
973
975
974
973
970
970
974
976
976
977
971
971
975
980
981
980
976
976
979
983
983
979
975
975
980
982
982
981
977
973
977
979
979
979
976
975
978
979
978
976
972
973
974
975
975
969
969
968
971
973
973
968
967
967
968
968
969
967
965
966
968
970
971
968
964
963
965
970
973
971
969
968
972
974
973
976
971
970
971
976
976
971
971
968
973
975
976
975
973
972
973
976
976
974
972
970
971
973
970
968
967
969
972
975
975
972
967
969
970
972
976
975
977
977
979
986
987
988
994
1004
1019
1038
1062
1085
1114
1151
1188
1220
1243
1247
1234
1199
1154
1105
1050
998
964
955
960
971
974
972
971
968
969
969
969
969
965
962
961
959
961
959
955
955
957
956
956
956
955
954
955
960
961
956
950
949
952
957
958
958
953
954
955
960
960
956
954
954
958
959
959
958
957
958
960
961
963
964
961
962
966
971
973
973
971
973
973
973
975
975
973
972
975
977
977
977
977
981
980
984
985
986
986
988
992
996
998
996
995
997
997
998
999
995
992
993
997
999
999
993
987
983
984
987
986
982
982
977
978
978
978
975
973
972
973
976
975
972
967
964
967
970
967
964
964
962
959
963
967
965
965
966
968
969
971
971
969
973
975
980
980
982
982
987
993
1000
1006
1006
1003
1009
1015
1028
1038
1045
1052
1065
1082
1099
1112
1121
1128
1142
1158
1176
1190
1196
1202
1205
1207
1206
1200
1195
1186
1177
1167
1157
1139
1122
1103
1085
1069
1061
1051
1040
1035
1033
1035
1033
1034
1039
1043
1057
1066
1066
1049
1019
985
963
948
944
942
936
930
923
922
918
916
912
906
904
905
907
905
902
898
894
893
892
890
884
884
879
880
882
881
877
874
874
877
880
878
874
869
871
871
875
874
871
864
863
866
868
868
865
865
864
867
870
870
872
871
874
876
879
886
889
887
890
896
899
903
903
903
907
915
919
926
925
927
933
938
944
945
947
945
947
951
956
955
956
951
953
957
960
960
960
958
958
959
961
962
962
961
959
961
963
962
961
957
956
960
963
963
962
956
953
958
962
960
959
957
956
959
961
960
961
959
960
961
965
964
964
964
963
965
966
970
969
967
968
968
974
973
971
970
970
973
977
977
974
969
970
972
975
974
972
969
970
972
975
972
972
967
965
969
972
973
971
965
962
967
969
969
968
968
967
969
972
970
969
965
963
967
971
970
970
966
964
968
973
972
970
968
967
970
970
971
970
967
967
969
975
975
974
969
970
971
973
974
971
970
971
971
976
977
975
975
975
976
977
981
979
978
980
984
988
985
987
989
991
998
1007
1018
1027
1041
1060
1084
1112
1140
1167
1193
1218
1242
1253
1247
1222
1179
1129
1079
1026
983
957
952
962
967
973
974
972
968
966
968
969
968
965
960
961
960
962
965
963
961
963
963
966
964
962
959
959
960
964
963
959
958
957
958
961
963
959
954
960
960
964
967
962
960
961
964
967
967
964
961
961
967
971
972
969
964
964
970
972
973
968
967
967
971
975
976
973
970
971
977
980
982
977
975
978
982
985
985
985
984
985
986
989
991
989
988
992
996
1002
1002
1002
997
997
1000
1008
1009
1005
1005
1004
1007
1007
1008
1007
1004
1002
1002
1005
1001
997
993
991
989
990
989
985
980
981
978
977
979
973
971
970
975
977
977
974
971
970
972
974
971
969
965
966
968
973
970
969
965
962
967
970
971
970
967
969
974
975
976
973
972
971
976
979
978
975
972
971
974
976
975
972
973
972
975
976
981
979
979
974
976
981
982
979
975
974
979
981
982
982
979
978
980
981
982
979
976
975
979
981
982
978
976
973
971
976
976
975
973
973
974
973
976
973
973
972
973
975
975
975
969
972
974
976
975
975
973
970
973
975
975
970
970
971
972
975
974
972
969
970
974
976
973
970
967
971
972
974
972
970
966
968
970
972
973
970
969
969
975
975
975
975
974
977
981
987
992
995
1002
1016
1033
1056
1077
1101
1127
1158
1187
1214
1233
1245
1247
1231
1205
1170
1125
1078
1026
985
959
954
954
956
957
963
963
966
960
960
956
955
960
959
958
955
952
954
955
957
956
950
946
947
948
952
950
949
947
948
950
953
956
951
951
948
951
955
955
956
955
954
956
958
957
955
952
950
954
957
955
952
951
953
954
959
959
956
951
952
956
959
956
956
954
953
957
961
961
960
958
961
961
966
968
970
970
969
971
977
981
981
981
981
985
987
989
989
987
988
993
997
997
995
998
1000
1002
1007
1006
1003
999
1001
1004
1008
1007
1001
999
998
1003
1004
1000
992
989
988
988
988
987
981
978
977
977
977
975
972
968
968
972
973
975
970
966
968
969
970
970
969
964
966
968
969
970
970
967
967
971
974
972
970
969
970
975
978
977
973
973
973
977
980
980
977
976
975
977
979
979
977
975
974
977
979
978
978
974
972
978
979
979
977
975
974
976
976
978
976
971
974
975
978
979
976
974
971
976
978
979
974
973
971
975
978
981
980
977
977
977
980
982
977
979
980
981
983
983
978
977
975
977
981
979
977
974
976
975
977
979
978
975
972
976
979
978
978
975
977
979
979
976
975
974
970
974
978
978
973
972
973
976
980
977
974
973
975
975
978
978
978
977
976
980
981
982
979
976
976
978
980
980
977
977
979
980
984
983
979
978
979
981
985
985
983
980
984
986
995
996
997
997
1001
1010
1021
1033
1047
1064
1090
1123
1156
1186
1212
1237
1254
1262
1250
1212
1160
1105
1053
1010
985
974
976
983
989
992
989
986
981
978
976
976
979
977
974
972
971
974
976
974
971
971
972
973
974
974
974
971
972
974
976
976
973
973
970
973
978
978
975
971
974
974
976
977
974
971
971
975
976
975
972
968
968
976
980
978
979
974
975
980
982
982
981
979
980
987
987
989
992
990
994
997
1001
1001
1001
1001
1002
1007
1011
1010
1009
1006
1009
1012
1019
1016
1015
1013
1014
1016
1020
1020
1018
1015
1015
1018
1023
1021
1017
1013
1011
1014
1014
1011
1010
1006
1009
1012
1013
1006
1007
1003
1000
999
1004
1002
999
992
992
994
996
993
991
988
991
992
994
991
989
987
986
987
990
989
987
984
984
985
986
984
985
984
984
990
996
999
999
1002
1005
1011
1017
1020
1023
1028
1038
1050
1066
1076
1085
1091
1105
1122
1135
1146
1158
1166
1183
1197
1215
1224
1227
1223
1221
1222
1216
1209
1200
1189
1170
1154
1140
1118
1094
1069
1051
1039
1031
1023
1015
1008
1005
1007
1013
1025
1037
1050
1062
1064
1055
1035
1006
982
966
959
956
951
947
937
936
933
935
929
925
922
919
920
921
917
915
911
909
913
914
910
908
905
903
907
907
909
903
901
900
903
902
900
899
897
898
899
902
900
897
895
896
898
901
902
898
899
900
902
905
905
904
901
905
911
913
914
913
913
917
922
927
930
929
929
932
935
942
943
946
946
950
955
959
961
962
964
966
970
972
973
972
973
974
977
979
977
973
972
970
973
975
976
975
971
971
973
977
975
973
970
972
974
976
977
974
970
972
974
975
975
973
968
969
971
975
974
970
970
970
971
975
974
972
971
971
973
974
975
972
972
972
975
980
979
975
972
971
973
979
979
978
974
974
976
979
978
975
976
976
976
979
974
973
970
969
973
976
976
973
973
971
972
977
976
973
971
973
973
978
979
978
975
974
977
981
978
976
974
974
977
979
977
972
971
970
974
978
975
971
970
972
974
978
979
974
971
971
976
980
978
976
975
975
976
978
978
976
973
975
976
977
975
975
971
971
974
977
976
973
971
971
971
975
974
974
971
970
975
977
977
974
973
974
979
984
984
980
978
980
982
984
988
987
986
985
987
990
994
997
1003
1019
1037
1060
1085
1112
1142
1175
1203
1225
1240
1236
1212
1174
1124
1071
1014
972
951
952
963
973
975
976
973
971
972
975
973
969
966
965
968
969
969
966
965
967
967
969
968
961
960
962
963
966
964
961
960
957
957
960
961
958
956
954
959
960
959
958
953
956
959
963
964
963
963
963
968
969
970
969
970
971
976
980
980
979
977
980
981
985
984
982
980
980
983
987
988
990
991
990
996
997
996
993
993
993
998
1000
1001
997
996
999
1003
1006
1003
1004
999
1003
1007
1012
1012
1011
1008
1007
1009
1010
1008
1007
1004
1001
1002
1004
1001
997
997
993
994
994
993
988
987
985
987
987
987
984
981
980
984
985
986
980
979
979
981
985
981
978
975
980
980
985
983
981
978
978
979
981
980
981
979
981
983
987
987
984
984
987
991
996
994
991
987
988
989
994
993
989
988
989
992
992
990
989
986
988
988
993
988
986
985
985
988
991
987
986
984
987
991
989
989
985
985
986
988
990
986
984
982
981
987
989
989
992
991
991
995
999
1002
1005
1016
1032
1053
1075
1102
1133
1169
1205
1240
1261
1260
1240
1198
1149
1095
1039
984
955
953
964
973
980
983
980
978
979
977
979
978
972
969
969
969
971
968
966
961
963
966
968
964
963
962
962
963
966
964
964
962
961
966
968
967
965
965
965
969
973
972
970
967
969
972
977
977
974
972
973
978
982
981
980
979
980
983
984
983
980
981
982
985
989
986
986
985
988
991
996
993
992
992
992
996
997
995
996
993
996
1002
1002
1002
1001
1000
1001
1002
1006
1003
998
999
999
1001
1005
1003
999
992
992
994
995
993
989
986
985
987
990
985
981
980
981
984
985
982
982
977
976
978
980
980
980
976
977
981
983
983
978
978
980
982
986
985
984
984
985
988
990
989
986
985
983
986
988
989
988
985
986
987
993
993
992
989
991
992
993
991
986
981
983
988
990
988
986
984
985
986
989
988
985
983
985
987
988
988
987
985
986
988
989
986
985
984
985
986
989
988
986
988
990
993
994
996
994
993
993
997
1000
1000
998
999
1005
1014
1026
1040
1056
1077
1105
1141
1179
1212
1243
1268
